70.093,70.423,70.423,70.093,69.767,70.093,70.423,70.423,71.09,71.09,70.423,70.093,70.423,70.093,70.093,70.423,69.767,69.767,70.093,70.093,70.093,69.767,70.093,71.09,70.755,70.423,70.423,71.09,71.77,73.529,80.214,86.207,84.27,75.377,70.423,71.09,70.755,70.093,69.767,69.767,69.444,69.444,70.093,70.755,70.755,70.093,70.423,71.429,71.429,71.09,70.423,70.093,70.755,70.423,69.767,69.444,69.767,69.444,69.444,69.767,69.767,69.444,68.807,69.444,70.423,69.767,69.124,69.444,70.093,70.093,69.444,69.767,70.093,70.093,70.423,70.423,70.423,70.093,70.423,70.755,70.093,70.423,70.093,70.093,71.429,71.429,71.09,71.09,71.09,71.09,71.429,71.09,70.093,70.755,70.755,70.093,70.423,70.423,70.093,70.093,70.423,70.423,69.767,70.423,70.423,70.093,70.755,71.09,71.09,70.423,70.755,71.429,70.755,70.423,70.755,71.09,71.429,71.09,71.429,71.09,70.423,70.755,72.115,73.892,76.142,77.32,77.32,74.257,71.09,72.464,72.816,71.77,72.115,71.429,70.423,71.429,72.115,71.77,71.77,72.464,72.464,72.816,73.171,72.464,72.464,72.464,71.77,71.77,72.115,71.77,71.429,71.77,71.09,70.423,71.429,71.429,70.755,71.429,72.115,72.464,73.529,73.529,72.816,73.171,72.816,72.816,73.171,72.464,72.115,72.115,71.77,71.429,72.115,72.816,72.115,72.464,72.464,71.77,72.115,72.464,72.816,72.464,72.464,72.115,71.77,72.115,72.464,72.464,71.77,72.464,72.464,71.77,72.115,72.115,71.77,71.429,71.77,71.429,70.755,70.423,70.093,69.767,69.767,70.423,70.093,69.767,70.755,71.09,71.09,71.09,71.09,71.429,71.429,71.77,71.77,71.09,70.755,70.755,70.755,71.09,71.77,71.77,71.09,71.09,71.429,71.09,70.755,71.09,71.09,70.755,71.77,72.115,71.429,71.77,71.77,71.77,72.115,71.77,71.09,71.429,71.77,71.429,71.429,71.429,71.09,71.429,71.429,71.429,71.429,71.09,71.09,70.755,70.755,70.423,70.755,70.423,69.767,71.09,71.09,70.093,70.755,71.429,71.77,74.257,79.365,79.365,75,71.77,70.755,71.77,71.429,70.755,71.09,71.429,71.09,71.09,72.115,72.115,71.77,72.464,71.77,70.755,70.755,71.09,70.755,69.767,70.423,70.423,69.767,70.093,70.423,70.093,69.767,70.755,71.429,71.429,71.09,71.09,71.09,70.423,70.423,70.423,69.767,70.423,71.09,70.755,71.09,71.09,71.09,70.755,71.429,72.115,71.429,72.115,72.115,71.429,71.77,72.115,71.77,71.429,72.464,72.464,71.429,72.115,72.115,71.429,71.429,71.429,71.09,71.429,71.77,71.429,71.429,71.77,72.115,72.115,72.115,72.115,71.77,71.77,72.464,72.464,71.77,71.77,71.429,70.755,71.429,71.09,70.093,70.755,70.755,70.423,70.755,70.755,70.423,70.093,70.755,71.429,71.09,71.09,70.755,70.755,71.429,75,77.32,75,77.32,76.923,73.529,75.758,76.142,73.171,74.257,77.32,78.125,76.142,73.529,75.758,75,70.755,71.77,73.171,72.464,72.464,76.142,76.923,75.758,78.125,83.799,85.227,82.418,78.534,72.464,71.77,72.816,71.429,70.093,70.755,71.09,70.755,70.755,70.423,73.892,78.125,78.534,76.923,74.257,74.627,76.142,73.529,69.767,71.429,72.816,70.423,72.115,73.529,71.77,71.09,73.171,73.529,70.093,72.115,72.115,69.124,72.464,74.257,72.115,75,75.377,72.115,75,75.377,72.464,74.627,74.257,72.115,75.758,76.531,73.892,76.531,76.923,73.892,75,74.627,72.464,72.816,74.257,72.816,71.429,75,75.377,72.816,74.257,75,74.257,74.627,75.758,75,74.257,76.923,76.923,74.257,76.142,75.758,73.171,75,78.125,76.923,73.529,75.758,75.758,73.171,73.171,75,74.257,70.755,73.529,74.257,71.77,75.377,76.923,73.892,74.627,76.531,74.627,72.816,75,74.627,73.529,73.892,72.816,75,75.377,73.171,75,73.529,72.464,78.534,79.787,73.171,69.124,71.09,71.77,70.423,73.171,72.464,69.767,71.77,72.816,71.429,74.257,75.377,73.171,75.377,76.531,74.627,72.816,75,76.531,73.892,73.171,75,75.758,74.257,72.115,75,82.873,79.365,72.464,69.767,69.124,70.423,70.755,70.423,70.755,72.115,76.531,78.125,75.758,76.531,75.758,73.529,72.115,73.892,74.627,72.464,72.115,72.115,72.464,75.758,78.534,77.72,75.758,72.816,74.627,76.142,74.257,76.923,75.377,71.429,70.423,69.767,71.77,71.429,68.807,69.124,71.77,72.115,70.423,73.892,74.627,74.257,75,72.464,74.627,73.892,71.77,75,75.377,73.892,77.72,82.873,79.787,74.257,74.627,74.257,71.429,73.171,73.892,73.171,73.892,75.377,76.923,76.142,77.32,78.125,76.142,73.892,75,75.377,74.257,74.257,75.758,76.142,72.816,73.171,75.758,74.257,70.755,71.429,73.892,73.171,72.115,74.257,74.627,73.529,75.758,77.32,75.377,73.529,75.758,76.142,74.257,73.171,75.377,76.142,73.171,73.892,76.142,75,73.171,75.758,75.377,72.464,73.892,74.627,72.115,74.257,75,71.429,73.892,74.627,71.77,74.257,74.257,72.115,73.529,73.171,71.09,73.892,75.758,73.892,74.257,76.531,76.531,73.892,75.377,73.529,70.093,72.816,73.171,70.423,72.464,72.816,71.429,75,74.627,71.09,73.529,73.892,73.892,77.72,78.125,76.142,72.464,69.767,70.755,70.755,69.124,71.09,70.755,68.182,68.807,69.767,70.093,69.767,69.124,69.444,69.444,68.493,68.807,68.807,68.493,69.444,69.767,69.124,69.124,69.124,69.124,69.767,69.767,69.444,70.093,70.093,70.423,71.09,70.423,71.09,71.09,70.755,71.429,70.423,70.093,72.115,71.77,71.77,75.377,78.534,77.72,73.892,71.77,73.892,72.464,69.444,71.77,71.77,70.423,72.115,72.816,72.115,74.257,75,73.171,75.758,76.923,74.257,73.529,76.142,76.923,73.892,75,75.377,72.816,73.529,75,73.892,72.115,75,76.142,73.892,73.529,73.529,73.171,71.77,75.758,77.32,73.892,73.171,76.142,75.758,72.464,74.257,75.377,75,76.142,78.534,76.531,75.377,79.365,79.787,79.365,84.27,83.333,75.758,75.377,79.365,80.645,78.534,75.377,73.892,74.257,77.32,78.125,76.142,77.32,77.72,75,74.627,75.758,72.816,69.124,70.093,70.093,66.667,68.807,70.755,70.093,70.755,75,79.365,76.531,74.257,73.529,75,73.892,71.09,71.77,71.429,69.767,71.09,73.529,71.77,68.182,70.093,71.09,68.493,67.568,68.807,67.873,65.789,68.182,67.568,66.079,67.873,68.182,67.265,67.873,67.568,66.964,67.568,67.568,67.265,67.873,67.873,67.265,68.182,69.124,69.124,68.493,69.124,70.423,71.77,72.816,73.171,71.09,67.568,68.807,68.807,66.667,67.265,67.265,67.265,67.873,67.873,67.873,68.493,68.807,68.807,68.493,69.444,69.444,68.807,69.444,69.767,70.755,71.09,70.423,70.423,70.093,70.093,70.423,69.444,69.444,69.767,69.444,69.444,69.444,69.444,68.807,69.124,69.767,69.124,69.124,68.807,69.124,69.444,67.873,67.873,68.493,67.873,67.873,68.493,69.124,69.444,69.767,70.093,69.444,70.423,72.115,77.72,79.787,75,74.627,71.77,68.493,70.423,70.755,71.429,71.429,69.124,69.767,70.423,70.423,70.423,70.423,70.093,70.423,70.423,70.423,71.09,71.09,71.429,72.115,71.429,71.09,71.09,70.755,70.755,70.755,70.755,70.423,70.423,70.755,70.093,69.444,69.767,70.093,69.767,70.093,70.093,69.767,70.755,70.755,70.093,70.093,69.767,69.767,70.423,70.093,69.767,69.767,69.444,69.444,70.093,69.767,69.124,70.093,70.423,70.093,70.093,70.093,70.093,70.093,70.423,69.767,69.124,69.767,70.093,70.423,70.423,69.444,69.767,70.755,70.423,70.093,70.423,70.423,69.767,70.093,69.767,68.807,69.767,70.093,69.767,70.423,71.09,71.09,70.755,70.093,70.093,69.767,69.767,70.423,70.093,69.767,69.767,70.093,70.423,71.429,71.429,70.423,70.755,71.09,70.755,71.09,70.423,69.767,70.093,70.423,70.423,69.444,69.767,70.093,69.767,70.423,70.093,69.444,69.124,69.767,70.423,70.093,70.423,70.093,70.093,70.755,70.423,69.767,69.124,69.444,69.767,68.807,69.124,69.124,68.493,69.444,69.124,68.807,69.767,70.093,70.093,70.423,70.755,70.423,71.09,71.77,71.429,72.115,73.529,75.377,75.758,75.758,73.529,70.755,73.892,73.529,70.423,72.115,70.755,68.807,69.767,69.767,69.444,70.093,69.767,69.124,71.77,75.377,75,72.115,72.816,72.115,69.767,72.115,72.115,72.464,75,72.816,71.77,74.257,72.464,68.807,71.77,72.816,69.767,72.464,72.816,71.09,72.464,70.423,69.444,71.429,69.767,68.807,72.464,72.816,70.755,73.529,72.464,69.444,72.115,71.77,70.093,72.816,73.529,71.77,74.257,74.627,71.429,73.892,75.758,74.257,74.627,76.923,75.758,72.816,75,75,73.892,76.142,75.758,73.892,75.758,75.758,76.142,81.522,84.27,83.333,80.214,78.125,79.365,78.947,76.142,77.32,76.923,74.257,76.142,76.531,74.627,75.377,74.627,73.171,73.892,76.923,76.923,73.171,72.816,71.429,68.807,70.755,71.77,70.423,71.77,71.09,69.124,70.755,71.09,69.444,71.09,74.627,75,73.171,75.758,76.923,75,75.377,77.32,76.142,72.816,75,75,71.09,72.115,70.755,66.964,67.873,69.124,68.493,68.493,68.807,69.124,69.767,69.444,69.767,70.755,70.755,71.09,71.429,71.09,71.09,71.429,71.09,70.423,71.429,78.125,86.705,90.361,90.361,87.719,86.705,85.714,81.081,80.645,81.081,81.967,87.209,89.82,91.463,92.593,91.463,91.463,94.937,97.403,94.937,94.937,94.937,92.593,93.75,94.34,94.937,96.154,95.541,94.34,94.34,95.541,95.541,95.541,96.154,95.541,94.34,95.541,97.403,98.039,99.338,99.338,100,100.67,100,99.338,97.403,94.937,94.34,93.168,92.025,93.168,93.168,93.75,95.541,96.154,94.34,90.909,87.719,86.705,89.286,90.909,89.82,86.705,87.209,91.463,90.909,88.235,86.705,85.714,84.746,84.746,86.207,88.235,89.286,88.757,89.82,91.463,92.025,92.593,93.168,94.34,93.168,93.75,94.937,94.34,94.937,96.154,98.684,98.684,96.774,95.541,93.75,92.025,92.025,91.463,89.82,90.909,93.168,95.541,94.34,90.909,89.82,90.361,90.909,88.757,88.757,89.82,90.361,91.463,93.168,94.34,93.168,93.168,94.34,93.168,93.168,94.937,94.34,94.34,94.34,93.75,93.168,93.168,94.937,92.025,89.286,89.82,88.757,89.286,89.286,89.286,91.463,90.909,90.361,90.909,92.025,93.168,93.75,94.937,96.154,96.774,94.937,94.937,96.154,96.154,96.774,97.403,99.338,100,99.338,95.541,93.168,95.541,94.937,94.34,93.75,94.34,96.154,96.154,95.541,96.774,97.403,95.541,96.154,96.774,96.774,98.684,100.67,99.338,96.154,94.34,94.34,96.154,96.774,96.774,98.684,98.684,96.774,96.154,97.403,98.039,97.403,97.403,98.684,98.039,96.774,98.039,96.774,98.039,99.338,99.338,102.04,102.74,104.17,103.45,101.35,101.35,101.35,100,98.039,99.338,100.67,98.684,96.154,97.403,100.67,100,98.039,99.338,100.67,100,100.67,101.35,101.35,102.74,102.74,101.35,100.67,101.35,102.04,101.35,100.67,102.04,103.45,103.45,103.45,102.74,104.17,104.9,104.17,104.17,103.45,104.9,105.63,104.17,104.17,104.9,104.9,104.9,106.38,107.91,107.91,107.14,106.38,105.63,105.63,104.17,103.45,102.74,102.04,103.45,102.04,100.67,101.35,101.35,100.67,101.35,102.04,101.35,103.45,104.9,104.17,103.45,102.74,105.63,107.91,107.14,107.14,107.91,109.49,110.29,110.29,108.7,107.91,108.7,107.91,106.38,106.38,107.14,107.14,105.63,104.17,104.9,104.9,105.63,106.38,104.9,106.38,107.14,106.38,107.14,107.91,109.49,108.7,107.91,107.91,107.14,108.7,109.49,109.49,110.29,107.91,107.14,107.91,107.91,107.91,106.38,106.38,107.91,107.14,106.38,107.91,108.7,107.91,108.7,111.11,111.11,110.29,111.94,112.78,111.94,112.78,113.64,113.64,111.94,111.11,111.94,110.29,107.91,107.14,105.63,104.17,104.9,106.38,104.9,102.04,103.45,104.17,103.45,103.45,103.45,104.9,104.9,106.38,107.14,104.17,104.9,105.63,102.74,102.74,104.17,104.9,106.38,107.14,106.38,105.63,107.91,108.7,106.38,106.38,107.91,109.49,108.7,106.38,106.38,107.14,102.04,92.025,87.719,90.361,94.34,95.541,96.154,99.338,99.338,98.039,100,101.35,102.04,101.35,102.04,104.17,104.17,103.45,103.45,107.14,110.29,109.49,108.7,111.11,112.78,111.11,110.29,110.29,110.29,110.29,108.7,107.91,110.29,110.29,106.38,107.14,108.7,107.91,107.14,106.38,107.14,105.63,106.38,107.14,105.63,105.63,105.63,106.38,105.63,104.17,106.38,107.91,104.17,102.04,103.45,105.63,104.9,104.17,105.63,104.9,104.17,104.17,104.17,103.45,102.74,104.9,105.63,105.63,106.38,107.14,110.29,111.11,108.7,106.38,106.38,106.38,106.38,107.14,108.7,109.49,108.7,109.49,110.29,110.29,109.49,108.7,110.29,110.29,109.49,109.49,109.49,111.11,109.49,108.7,110.29,109.49,107.91,108.7,109.49,108.7,110.29,111.11,110.29,111.11,113.64,114.5,111.94,111.94,114.5,114.5,112.78,113.64,114.5,113.64,113.64,113.64,114.5,115.38,115.38,113.64,111.94,110.29,110.29,111.94,111.94,112.78,112.78,112.78,113.64,197.37,220.59,118.11,109.49,111.11,111.94,111.11,110.29,111.11,112.78,112.78,113.64,113.64,112.78,113.64,113.64,114.5,111.94,107.91,108.7,110.29,107.91,105.63,105.63,107.14,107.14,187.5,357.14,234.38,150,108.7,109.49,110.29,107.91,104.17,100.67,101.35,104.9,104.17,104.17,105.63,107.14,107.14,106.38,106.38,105.63,107.14,107.91,107.91,110.29,111.11,110.29,107.91,105.63,107.14,105.63,102.04,101.35,102.74,101.35,96.774,96.154,98.684,98.039,96.774,99.338,102.04,100.67,99.338,100,98.039,98.039,99.338
