96.154,96.154,96.154,97.403,98.039,97.403,97.403,98.039,97.403,97.403,99.338,100.67,101.35,100,98.684,98.684,97.403,95.541,96.154,96.154,96.154,96.774,96.154,98.039,99.338,98.684,99.338,99.338,100,100,64.935,47.771,63.025,94.937,93.75,93.168,93.168,92.593,93.168,94.34,93.75,92.593,92.593,93.168,93.75,94.937,95.541,95.541,95.541,94.937,94.937,96.154,97.403,98.684,99.338,99.338,99.338,100,100,98.684,97.403,95.541,93.75,92.025,91.463,90.361,89.82,91.463,92.025,92.025,92.593,93.168,93.75,93.75,94.34,95.541,96.154,95.541,96.154,96.774,94.937,94.34,95.541,94.34,92.593,92.025,90.909,91.463,93.168,93.168,92.593,92.593,93.168,94.937,95.541,96.154,98.039,98.684,99.338,99.338,99.338,100.67,101.35,102.04,102.74,102.74,102.04,100,98.039,96.154,94.937,93.75,91.463,90.361,92.025,94.937,96.154,96.774,99.338,100.67,100.67,101.35,102.04,102.74,102.74,102.74,100.67,96.774,92.593,87.209,82.873,82.418,85.227,87.719,89.82,92.593,95.541,97.403,99.338,100.67,99.338,99.338,100,100,100,100.67,102.04,102.04,100,99.338,99.338,98.039,96.774,95.541,94.937,94.34,93.75,93.168,92.593,92.025,92.025,92.025,91.463,92.593,93.75,94.34,96.774,99.338,100.67,102.04,101.35,100,100.67,101.35,100.67,98.684,96.774,95.541,96.154,97.403,98.684,100.67,100.67,100.67,100.67,101.35,103.45,102.74,102.04,100.67,98.684,97.403,96.154,96.774,97.403,98.684,99.338,99.338,99.338,97.403,96.154,94.937,91.463,88.757,87.209,86.207,87.209,88.235,88.757,89.82,91.463,92.593,93.75,95.541,96.154,96.774,97.403,98.039,98.684,98.684,97.403,97.403,97.403,96.154,95.541,94.937,94.34,93.168,93.168,93.168,93.75,94.34,93.75,94.34,95.541,95.541,95.541,95.541,95.541,95.541,95.541,95.541,95.541,96.774,96.774,96.154,96.774,97.403,97.403,96.774,96.774,97.403,96.774,96.154,96.154,96.774,96.154,94.937,94.937,94.937,96.154,96.774,96.774,97.403,98.039,98.684,98.684,98.684,99.338,100,99.338,100,102.04,102.74,102.74,101.35,99.338,98.684,95.541,92.593,90.909,89.286,89.82,90.909,92.025,93.168,93.75,93.75,94.34,94.937,95.541,95.541,96.154,97.403,98.684,100.67,102.04,102.04,100,97.403,94.34,92.025,89.82,87.209,86.207,86.207,88.235,89.82,90.361,92.025,93.168,94.34,94.937,95.541,96.154,95.541,95.541,96.154,95.541,94.34,93.168,90.909,87.209,85.227,86.705,90.361,93.75,94.937,95.541,95.541,63.025,63.025,94.937,94.937,95.541,96.154,95.541,96.154,96.774,94.937,93.75,92.025,89.82,89.286,89.286,89.82,90.909,91.463,93.168,94.34,94.34,94.937,94.937,94.937,95.541,96.774,97.403,99.338,100,99.338,100,100.67,100,97.403,93.75,91.463,88.235,85.227,84.746,85.714,88.235,89.82,91.463,93.168,94.34,95.541,96.774,97.403,98.039,99.338,100,100.67,101.35,101.35,102.04,101.35,100,100,98.039,94.937,93.75,92.593,91.463,89.286,86.207,84.746,86.207,88.757,90.361,93.168,95.541,96.154,96.154,96.774,98.039,98.684,99.338,99.338,98.684,98.684,99.338,99.338,100,100.67,100,100.67,101.35,100.67,99.338,98.039,96.154,93.75,91.463,90.361,88.757,86.705,86.207,87.209,89.82,91.463,92.593,93.168,93.168,94.937,96.154,96.774,97.403,98.684,101.35,102.74,102.04,102.04,102.74,102.04,100.67,99.338,96.774,93.168,89.82,87.719,87.209,88.757,90.361,90.909,90.361,90.361,90.909,92.593,95.541,96.774,98.684,98.684,96.774,93.75,92.593,93.168,93.75,96.154,96.774,96.774,97.403,97.403,98.039,98.039,98.039,98.684,100,100.67,98.684,96.154,96.154,97.403,96.774,96.774,98.039,98.684,98.684,98.684,99.338,100.67,99.338,95.541,91.463,88.757,88.757,88.757,89.82,92.025,93.168,94.34,96.774,98.684,98.684,99.338,100,100,100,100,100,98.684,98.684,98.684,96.774,95.541,93.168,92.025,92.593,92.593,94.34,96.774,96.774,96.774,98.039,99.338,98.039,96.154,96.774,96.774,96.154,92.593,87.719,85.714,86.705,88.757,89.82,91.463,93.75,95.541,96.154,96.774,98.039,98.039,97.403,97.403,96.774,96.154,94.34,90.909,89.286,88.757,87.719,87.209,88.757,90.361,90.909,92.593,93.75,93.75,94.34,95.541,96.154,96.154,95.541,94.937,94.937,94.34,91.463,89.286,86.705,82.873,81.967,83.333,85.227,86.705,88.757,91.463,93.168,94.34,96.154,98.039,98.684,98.039,96.774,97.403,97.403,95.541,94.937,94.34,93.168,90.909,88.235,87.209,87.719,87.719,88.235,89.82,89.82,88.235,86.207,85.227,85.714,83.799,81.081,81.081,83.333,84.746,84.27,85.227,87.719,88.757,88.235,87.719,88.235,89.82,89.286,88.757,88.757,88.757,88.757,88.235,88.235,87.209,86.207,87.719,88.235,88.235,89.286,91.463,92.593,90.909,90.361,90.909,90.909,90.361,88.235,86.705,86.705,86.705,86.207,85.227,86.207,87.209,86.207,87.209,88.235,88.757,90.361,90.909,92.025,92.025,92.025,92.593,93.168,93.168,92.025,92.593,92.593,92.025,93.168,94.34,94.34,92.593,90.361,89.82,90.361,90.361,90.909,92.025,92.025,91.463,92.025,93.168,93.75,93.168,93.168,93.168,91.463,90.361,88.757,87.209,87.719,87.209,87.209,89.286,90.909,91.463,91.463,92.593,93.168,92.025,93.168,95.541,94.937,94.937,95.541,96.154,96.774,95.541,94.937,94.34,93.75,91.463,89.82,89.286,88.235,89.286,90.909,91.463,92.025,93.75,94.937,94.937,96.154,96.154,94.34,93.168,92.593,92.025,90.909,89.82,87.209,85.714,86.207,86.705,87.209,87.719,88.757,90.361,92.025,92.025,92.593,94.34,94.34,93.75,93.75,94.34,94.937,93.75,92.025,92.025,92.025,90.909,89.82,90.361,90.909,90.909,92.025,92.593,92.593,93.168,93.75,92.593,92.025,92.593,93.168,92.025,90.909,92.593,92.593,91.463,91.463,92.593,93.168,92.025,92.025,92.025,91.463,92.025,92.593,92.025,92.025,93.168,93.168,90.909,87.719,87.719,90.909,90.909,87.719,85.714,85.227,84.27,83.333,84.746,86.705,87.719,88.757,89.82,90.361,89.82,89.82,91.463,92.025,90.909,89.286,88.235,88.235,87.719,86.705,86.705,87.209,85.714,84.746,84.746,84.27,84.27,84.27,83.799,83.799,83.333,82.873,83.333,83.333,82.873,82.418,82.418,82.873,82.418,81.967,82.873,83.799,84.27,83.799,84.27,85.227,84.746,84.27,85.714,85.714,85.227,85.227,85.227,86.207,86.207,86.705,86.705,86.705,86.207,85.227,85.227,85.714,85.714,86.705,86.705,86.705,88.757,89.286,88.757,88.235,87.209,85.714,84.746,83.799,84.27,84.27,84.746,86.207,86.705,87.719,88.235,88.757,89.82,88.757,88.235,88.235,87.209,86.705,85.714,85.714,85.714,85.714,86.207,86.705,86.705,87.209,88.757,89.286,88.235,87.719,87.719,87.209,87.719,86.705,84.27,83.333,83.333,82.873,82.418,83.333,83.799,82.873,81.967,81.967,82.418,82.873,83.333,83.333,83.333,83.333,83.799,84.27,85.227,86.207,86.705,87.719,88.235,88.757,90.361,92.025,92.593,92.025,89.286,87.209,86.705,86.705,87.719,87.719,87.719,87.719,87.719,88.235,87.719,87.209,88.757,90.361,89.82,89.286,90.361,90.909,89.286,87.719,86.207,84.746,83.799,84.746,86.705,86.705,86.705,88.235,89.286,88.235,87.209,85.714,86.207,88.235,89.286,91.463,92.593,93.75,94.34,94.34,95.541,95.541,95.541,96.154,96.774,98.039,98.039,98.039,98.039,97.403,97.403,96.774,94.34,92.593,91.463,88.757,87.719,88.235,88.757,90.361,92.593,94.34,93.75,92.025,92.593,94.34,94.937,96.154,97.403,98.684,100.67,101.35,101.35,102.04,102.74,102.04,100.67,100.67,102.04,102.74,100.67,98.684,97.403,94.937,93.168,93.168,93.168,93.168,94.34,94.937,95.541,96.154,48.701,24.917,33.632,100.67,101.35,102.04,101.35,101.35,99.338,96.774,94.937,93.168,93.168,93.75,94.34,96.154,96.774,97.403,98.039,98.684,99.338,100,100,100,100.67,99.338,99.338,99.338,98.684,97.403,94.937,93.75,92.025,92.025,94.34,94.937,95.541,96.774,98.039,99.338,100,100.67,102.04,102.04,102.04,102.74,103.45,103.45,104.17,104.9,104.17,104.9,104.9,104.9,104.9,104.17,103.45,102.74,100.67,98.039,95.541,91.463,87.209,86.207,87.209,86.207,85.714,87.719,89.82,91.463,92.593,93.75,20.08,20.298,105.63,104.17,102.04,98.684,96.154,94.34,89.82,86.207,86.207,87.209,36.232,36.946,96.774,97.403,97.403,97.403,97.403,97.403,98.039,97.403,96.774,27.174,23.585,62.241,93.75,94.34,96.154,97.403,96.774,96.154,93.75,90.361,88.235,87.719,90.361,93.75,94.937,96.154,96.154,92.593,59.761,36.32,46.154,93.75,92.025,89.286,87.209,85.714,85.714,86.207,86.207,86.705,88.757,90.909,89.286,86.705,86.705,87.209,87.719,88.235,88.757,88.757,88.235,87.719,88.757,89.82,88.757,89.286,89.82,88.757,86.705,83.799,80.645,79.365,80.214,78.947,77.72,79.365,81.522,83.799,86.705,89.82,91.463,91.463,90.909,88.757,87.209,86.705,86.207,85.227,82.873,83.799,88.235,90.361,89.82,88.757,87.719,87.719,88.235,88.235,88.235,89.286,89.82,88.757,87.209,87.209,87.719,86.207,85.714,86.207,84.746,83.333,82.873,82.418,82.418,82.873,84.27,84.27,84.27,85.227,85.227,84.746,85.227,85.714,84.27,84.27,85.227,84.27,83.799,86.207,87.209,86.705,86.705,86.705,88.235,90.361,46.296,46.875,96.774,96.774,95.541,93.75,92.025,89.286,85.227,83.333,82.418,81.081,80.214,81.081,84.27,87.209,89.286,90.361,90.909,91.463,90.909,89.286,88.757,90.361,89.82,60,60.976,92.025,90.909,90.909,90.361,89.82,89.82,90.361,90.361,89.286,88.235,87.209,88.235,89.286,87.719,84.746,81.081,79.787,81.967,85.227,87.209,88.235,89.286,89.82,90.909,88.757,87.209,86.705,84.746,83.333,84.27,86.207,87.209,89.286,91.463,93.75,95.541,96.774,97.403,97.403,98.039,97.403,95.541,94.937,94.34,92.593,90.909,89.286,87.719,87.209,85.714,86.705,90.909,93.168,94.34,94.34,94.34,94.937,94.937,93.75,93.75,94.937,93.75,92.025,91.463,90.909,89.82,88.757,88.235,88.235,88.235,88.235,87.719,86.705,86.207,84.746,84.27,85.227,84.746,84.27,83.799,84.27,85.227,44.248,45.317,63.559,64.103,97.403,96.774,94.34,92.593,90.909,89.82,59.055,17.007,18.987,94.937,93.168,59.289,57.471,82.418,81.081,81.967,82.873,82.873,83.799,85.714,87.209,88.235,89.286,90.909,90.909,92.025,92.025,90.361,90.909,30.181,30,17.964,12.215,26.93,94.34,36.855,36.675,92.025,92.593,93.168,93.168,92.593,91.463,89.82,87.719,84.746,82.873,81.522,81.967,83.333,84.27,85.714,87.209,88.757,89.286,90.361,90.909,90.361,90.909,36.585,36.585,90.909,44.91,44.776,89.82,88.757,87.719,88.757,88.235,86.207,84.746,85.714,87.719,90.361,92.593,93.75,63.291,62.762,92.025,89.82,87.719,84.746,83.799,84.746,84.27,84.746,85.714,87.209,87.209,87.209,87.209,85.227,82.873,82.873,83.333,82.873,83.799,84.746,86.207,87.209,87.209,87.719,88.757,88.757,89.286,45.045,45.045,90.909,91.463,90.909,89.82,89.286,89.286,88.757,87.719,86.705,85.714,84.27,83.799,83.799,82.418,82.418,82.873,81.967,82.418,82.418,82.418,84.27,86.207,87.209,87.209,88.757,90.909,90.909,90.909,90.909,89.82,87.209,84.27,82.418,82.873,84.746,85.714,87.719,89.82,90.361,90.361,90.361,44.91,44.91,90.909,90.361,89.82,44.91,45.045,92.025,93.168,93.168,93.168,93.168,93.75,94.34,92.593,90.361,87.719,84.746,81.967,79.365,78.534,79.365,80.645,82.418,84.27,85.714,87.209,88.235,88.757,89.286,90.361,90.909,90.361,44.776,44.379,86.705,85.714,83.799,82.418,82.873,81.967,81.522,83.333,83.799,83.333,83.333,84.746,87.209,60.484,61.728,94.937,96.154,96.154,94.937,93.75,92.593,89.286,85.714,83.799,82.873,81.081,78.534,77.32,76.142,75.758,76.923,77.72,78.125,78.534,79.365,81.081,83.333,84.746,85.714,86.705,88.757,90.909,90.909,88.757,87.209,58.14,58.594,89.82,89.82,90.361,91.463,91.463,90.909,91.463,89.82,86.207,85.227,85.714,86.207,57.915,58.594,90.909,92.025,92.593,92.593,90.909,89.82,58.366,57.471,84.27,83.333,83.333,84.27,84.27,83.333,81.967,80.214,79.787,81.081,82.418,83.333,83.333,82.418,81.522,80.645,81.081,82.418,82.873,82.418,82.873,82.873,83.799,85.227,85.227,85.227,83.799,81.081,78.947,77.72,78.947,81.967,83.799,84.27,85.714,87.209,88.757,90.361,90.361,45.732,46.154,93.168,91.463,90.361,89.286,87.719,88.757,89.286,87.719,86.207,84.746,83.333,82.873,83.333,83.799,85.227,87.209,89.286,90.909,92.593,93.75,94.34,94.34,93.75,94.937,96.154,97.403,97.403,97.403,97.403,94.34,89.82,85.227,81.967,79.787,79.365,80.645,54.945,56.391,87.719,87.209,87.209,88.757,90.361,92.025,93.75,94.937,96.154,94.34,92.593,89.286,83.799,80.645,53.957,55.147,86.705,88.235,87.719,86.705,85.227,83.333,82.418,81.967,81.081,81.522,81.967,33.784,34.483,90.909,92.025,92.593,93.168,93.168,92.025,91.463,90.361,89.286,88.235,85.227,84.27,84.746,84.746,85.227,85.227,86.207,86.705,86.207,86.705,88.757,91.463,92.025,90.361,88.235,85.714,83.333,81.967,82.418,55.762,56.18,86.705,88.235,88.757,88.235,86.705,85.227,83.799,84.746,85.714,85.714,43.86,16.358,20.134,91.463,90.361,88.235
