66.964,67.568,67.265,65.789,65.789,67.873,69.124,69.444,69.767,69.767,67.873,65.217,66.079,66.964,68.182,72.464,74.257,75,78.534,78.947,72.816,69.124,69.124,68.807,69.124,68.493,68.493,70.423,72.115,72.464,72.464,72.816,74.257,74.257,72.816,74.257,74.627,73.529,75.758,76.923,76.142,78.534,81.522,84.27,87.209,87.209,86.705,85.714,84.27,84.27,86.207,86.705,84.746,82.873,82.418,82.873,81.522,80.214,82.418,82.873,80.645,81.522,83.799,86.705,86.705,84.27,82.873,83.333,85.714,85.227,81.967,83.333,84.746,83.333,84.746,85.714,84.746,83.333,83.333,82.873,80.645,81.081,81.522,80.214,81.081,80.214,77.72,78.534,79.365,78.947,79.787,81.522,81.967,80.645,79.365,78.947,77.72,75.377,76.142,76.142,74.257,76.531,78.534,78.534,78.534,79.787,81.081,80.214,78.534,79.787,81.081,79.365,78.125,78.947,80.645,78.947,75.758,74.257,76.531,78.947,78.125,76.531,76.531,75.377,72.464,72.115,75,76.142,76.142,78.947,81.522,82.418,81.081,78.534,75.758,75,74.627,73.892,76.531,77.32,75,74.257,73.171,70.093,68.493,70.093,71.429,72.464,76.142,77.72,78.947,82.418,83.333,81.522,77.72,74.257,75,75,71.09,70.755,71.09,70.755,73.171,73.529,71.77,71.77,73.529,72.115,69.444,68.807,69.444,69.444,68.493,71.77,73.171,71.77,73.171,73.171,73.171,75,75,73.892,73.529,74.257,77.72,79.365,78.534,79.787,81.081,80.645,80.214,81.081,81.967,81.522,80.645,82.418,81.522,78.534,77.32,78.534,78.125,76.531,78.534,78.534,77.72,78.947,79.365,79.365,82.873,83.333,80.645,78.534,78.125,76.531,72.464,73.529,74.257,72.464,72.816,74.257,73.529,71.77,72.816,71.77,69.444,69.767,70.755,70.423,71.09,70.755,71.77,73.529,71.77,71.77,73.171,76.142,79.787,83.799,88.235,89.82,86.207,80.645,75,71.77,70.423,70.755,74.627,76.923,76.531,80.214,86.207,90.909,94.937,95.541,96.154,96.154,94.937,94.937,94.937,94.937,94.937,94.937,94.937,94.34,92.593,92.025,90.361,89.286,90.361,89.82,88.757,87.719,88.757,88.757,86.705,84.27,82.873,81.967,80.645,81.967,85.227,86.705,87.209,87.209,86.207,83.799,78.534,74.257,76.531,79.787,78.947,80.645,81.081,78.534,79.787,81.522,77.72,74.627,76.923,80.214,81.522,83.333,85.714,86.705,88.757,90.909,91.463,92.025,93.75,95.541,95.541,97.403,97.403,98.039,100,100,99.338,98.684,99.338,100,100,98.039,95.541,96.774,97.403,96.774,97.403,98.039,99.338,98.684,98.039,100,100.67,100.67,98.039,94.937,93.75,94.34,96.774,96.774,94.937,95.541,96.774,95.541,94.937,96.154,98.039,96.774,96.154,96.154,94.34,94.34,93.75,90.909,90.361,92.593,94.34,94.34,92.593,90.909,91.463,93.75,94.34,95.541,96.774,95.541,93.75,94.34,94.34,92.593,93.75,93.75,92.593,90.909,90.909,91.463,90.361,90.361,91.463,90.909,88.757,90.361,91.463,88.235,85.227,86.705,88.757,89.286,91.463,93.75,96.154,97.403,97.403,98.039,100,100,97.403,97.403,98.684,98.684,98.039,98.039,99.338,102.04,103.45,102.74,103.45,103.45,104.17,106.38,107.14,105.63,103.45,102.74,104.17,104.17,102.04,98.684,97.403,97.403,94.937,92.593,90.361,90.909,90.361,88.757,90.909,93.75,92.025,86.705,84.27,84.27,85.227,85.227,83.799,86.207,90.361,88.235,79.787,72.115,71.429,76.923,81.081,94.937,93.75,84.746,92.025,94.937,96.154,98.039,98.039,96.154,97.403,97.403,96.154,96.774,98.684,100,99.338,98.039,96.774,96.154,96.154,95.541,90.909,85.227,82.418,80.214,80.645,78.947,74.257,71.429,70.755,73.529,74.257,72.816,73.171,74.257,73.529,70.423,69.124,69.444,67.265,66.079,66.964,65.789,65.502,67.568,67.265,65.502,68.493,67.568,62.241,63.291,63.291,61.728,61.728,60.484,61.728,62.5,61.475,63.83,64.655,61.224,59.055,58.594,61.983,64.655,63.025,61.983,62.5,64.655,64.655,63.83,67.265,66.372,62.762,64.378,63.025,64.378,67.873,66.372,65.502,64.655,64.655,64.103,64.655,66.372,64.655,61.728,63.559,64.103,60.484,61.224,62.5,62.241,62.241,64.655,66.667,68.182,71.429,72.464,73.171,70.093,64.935,63.83,63.83,61.728,60.241,62.241,63.025,61.224,62.241,64.935,63.025,60.241,61.728,61.224,60.729,62.241,61.728,60.976,62.5,61.728,59.524,60.729,61.983,60.976,60,60.976,61.475,61.728,63.559,64.103,64.935,64.935,62.762,63.83,66.964,70.755,70.755,66.667,65.789,68.807,69.124,64.655,61.983,62.241,60.976,62.241,63.025,60.484,62.241,65.789,66.667,65.217,66.372,67.568,65.502,65.502,65.502,63.83,63.291,65.217,66.372,64.655,66.079,66.667,64.103,61.983,62.5,61.983,58.366,58.824,59.289,58.594,60.976,61.475,60,63.025,64.655,61.475,59.289,58.14,58.14,57.471,57.692,60,60.729,59.761,62.5,66.372,65.502,63.025,63.559,62.5,62.5,63.291,60.976,60.484,61.728,60.976,59.289,58.366,56.604,55.556,57.034,58.824,59.761,59.761,61.224,61.983,59.055,58.14,60.241,63.025,63.291,61.983,59.524,59.524,57.692,53.571,53.957,55.762,56.18,58.594,59.761,57.692,58.824,59.289,56.604,57.471,59.524,58.366,57.252,59.761,62.241,67.873,72.115,74.257,81.967,84.27,82.418,69.767,63.291,64.378,64.655,64.935,64.103,62.762,62.5,64.378,64.935,66.372,68.493,67.265,67.265,66.372,61.983,60.484,59.055,57.915,57.471,56.604,57.471,58.594,62.5,64.655,63.559,62.762,60.729,59.289,58.824,60.241,61.224,60.241,62.762,63.291,59.761,58.366,59.055,61.728,60.484,58.366,58.824,60.976,64.103,65.789,69.444,69.767,65.217,63.559,63.559,63.559,63.025,62.5,62.5,61.728,61.475,62.241,63.291,65.502,66.964,67.873,66.964,64.378,63.025,63.83,63.83,62.5,66.667,68.493,65.502,64.935,66.372,66.964,65.502,66.964,66.372,64.103,65.502,65.217,63.83,65.217,65.502,63.83,64.935,64.655,63.559,67.568,67.873,64.655,67.265,67.873,64.655,63.559,62.762,63.291,67.568,69.444,67.265,66.667,65.217,64.378,65.217,66.964,70.423,72.115,72.464,72.115,70.423,71.09,68.807,63.83,63.83,63.291,60,59.524,62.5,63.291,61.475,61.475,61.728,63.291,63.291,62.241,61.983,61.224,59.289,57.471,57.252,59.289,61.475,62.762,66.964,68.493,65.789,65.502,66.079,64.935,62.762,60.241,60.729,61.224,59.524,60.976,61.728,60.484,62.241,62.762,61.728,63.83,65.789,64.655,63.559,64.935,64.378,61.983,62.762,62.762,61.224,62.5,63.291,62.762,64.935,66.079,64.935,63.83,63.559,62.5,60.729,60,61.475,62.762,62.241,62.241,61.983,61.728,62.241,61.983,60.976,61.728,61.224,59.761,60,59.524,58.594,60,60.241,60.484,60.976,59.761,61.728,65.217,65.502,65.789,65.217,63.559,63.559,66.079,68.493,66.964,64.378,64.655,64.378,62.241,62.762,65.502,65.217,63.291,66.079,66.964,65.502,66.372,67.265,71.09,72.464,70.423,70.423,70.093,71.09,71.429,71.77,72.115,71.77,73.529,73.171,69.767,67.873,68.493,67.265,64.935,66.372,66.964,65.789,66.372,66.964,65.789,63.83,64.655,66.372,65.217,64.103,65.217,64.935,63.291,64.655,64.103,61.728,62.5,62.5,61.224,62.762,63.559,62.762,64.103,65.789,65.502,65.217,67.265,68.182,66.667,66.667,66.079,64.378,66.079,66.964,65.502,65.217,66.372,66.964,66.372,67.873,67.568,68.493,68.493,65.789,65.217,68.182,69.124,67.568,67.265,66.079,65.789,65.502,66.372,68.493,68.182,64.935,64.655,63.559,60.976,60.729,60.729,60.241,60.484,62.5,63.559,64.103,66.079,66.079,64.103,65.789,65.789,62.5,63.291,64.378,65.502,65.789,64.935,66.079,66.372,63.559,63.291,62.5,59.761,60.729,61.475,60.976,62.241,62.5,63.025,64.378,64.103,63.559,63.025,63.025,64.935,65.502,65.217,69.124,69.444,65.789,64.378,62.5,63.291,64.103,61.983,61.983,62.762,63.83,65.789,68.493,68.807,66.667,65.502,65.502,63.025,59.524,60.484,60.729,59.289,62.5,64.378,63.025,65.502,66.372,64.103,63.291,63.559,63.291,63.025,66.667,68.182,66.079,65.217,65.789,64.655,61.728,61.728,62.241,61.728,62.5,63.83,63.559,63.291,63.559,63.559,63.559,64.378,65.789,65.502,65.217,67.568,67.265,64.103,62.241,62.5,62.5,62.5,62.762,61.475,63.291,65.217,64.655,64.378,67.265,67.568,64.378,63.559,64.103,67.873,68.807,66.667,66.964,69.444,70.423,69.767,71.77,74.257,74.257,73.892,72.115,69.124,70.423,69.444,66.079,64.935,63.83,65.789,66.964,66.079,68.182,68.182,66.964,69.444,69.444,66.964,66.667,66.079,64.935,67.873,68.807,65.502,64.935,66.964,67.265,66.372,67.873,71.77,73.171,72.115,73.529,72.464,69.124,66.964,66.372,64.935,63.83,65.502,66.964,67.568,69.444,74.257,74.627,70.423,69.124,71.77,72.115,69.444,69.767,72.816,76.531,76.531,75.758,76.531,77.32,80.645,83.799,82.873,83.333,81.967,79.365,80.645,78.947,75,73.892,74.627,78.125,79.787,78.125,76.923,76.142,75,76.142,75.377,73.529,75.758,75.377,72.816,71.77,70.755,71.429,73.529,72.464,71.429,73.171,72.115,68.493,66.667,68.182,69.124,68.182,71.429,77.32,78.534,78.534,75.758,70.755,69.124,71.09,70.755,70.423,78.125,81.967,78.125,75,74.257,72.816,69.767,69.124,72.816,75.377,73.892,73.892,76.142,73.892,68.807,68.493,70.755,69.767,67.265,66.372,67.568,67.873,65.502,67.265,68.182,66.372,68.493,69.444,68.493,68.182,69.124,69.124,66.372,64.935,66.667,68.182,68.182,69.767,71.77,71.09,68.807,68.493,68.493,67.873,67.265,67.568,68.182,67.873,67.873,70.093,70.093,67.873,66.667,67.568,67.568,64.935,64.103,64.935,65.217,64.935,65.502,68.182,69.767,68.493,69.767,70.755,70.423,72.464,71.429,68.182,67.265,68.807,72.115,70.755,68.182,67.568,67.265,68.493,70.423,73.529,75.377,73.171,71.77,72.464,72.816,71.09,68.807,69.767,69.124,66.964,66.372,66.964,67.568,67.265,70.423,72.115,71.77,73.892,73.529,70.423,68.493,69.767,68.493,64.655,66.079,67.568,67.265,70.093,73.529,76.142,78.534,77.32,72.816,69.767,71.09,71.429,68.493,69.767,71.429,69.767,69.124,73.171,75.758,73.892,74.257,75.377,71.429,66.964,68.182,67.265,64.378,67.568,70.093,66.964,64.655,66.372,68.182,66.964,66.964,66.372,63.559,61.728,63.83,64.103,62.241,65.217,66.964,66.372,69.124,69.124,66.372,65.217,65.217,64.655,63.559,65.789,66.667,65.502,67.873,69.444,67.873,66.667,68.807,69.444,67.568,67.568,68.493,68.493,66.964,68.493,68.807,66.964,66.667,67.873,67.873,66.079,64.935,65.502,67.265,68.493,67.873,65.789,65.789,67.265,68.493,68.493,67.873,68.493,67.873,66.079,67.265,66.372,64.655,66.964,68.182,67.568,69.124,69.124,66.667,65.217,64.655,66.079,67.265,67.265,70.093,70.755,68.807,70.423,69.767,67.568,69.444,72.464,75.758,75.377,72.816,73.171,76.142,76.531,74.627,75.377,78.125,79.365,77.32,75.377,75.377,73.892,70.093,70.093,70.093,68.182,67.568,68.493,67.873,66.372,67.873,70.093,69.767,67.265,65.502,64.655,62.762,61.475,64.378,65.502,65.502,66.372,65.789,66.964,70.093,70.755,68.182,68.182,67.265,65.217,64.935,65.502,65.217,63.83,64.378,64.378,63.025,65.502,67.265,66.667,67.265,68.182,67.568,65.502,66.667,67.873,67.265,69.124,69.767,69.444,68.807,66.667,66.079,66.964,67.265,66.667,68.182,68.493,67.265,67.265,68.807,68.807,67.265,67.568,67.265,69.444,70.093,68.493,69.767,72.464,72.816,71.429,72.115,72.816,72.464,71.77,73.892,73.892,71.77,71.429,72.816,72.816,70.755,70.755,71.09,70.093,70.755,71.429,69.124,69.767,70.093,69.124,69.767,72.816,75.377,75.377,75,73.171,72.464,71.09,69.124,70.093,71.77,71.77,70.093,68.493,69.767,70.093,68.493,69.124,70.093,70.093,70.755,72.464,71.77,69.767,71.09,70.755,68.807,70.093,70.423,68.493,68.493,68.807,66.964,65.217,64.378,66.079,67.265,66.964,69.124,69.444,67.265,67.265,67.873,68.182,71.09,73.892,74.627,76.142,77.72,77.72,77.72,76.923,75.758,75.377,76.923,77.72,75.758,74.257,76.142,80.645,81.081,78.947,78.125,75.377,71.77,68.807,68.807,69.767,69.444,69.767,69.124,70.423,70.423,68.807,68.807,70.755,70.755,68.182,66.667,66.372,66.079,64.655,65.502,65.502,63.559,64.103,64.378,63.291,64.655,64.655,62.5,63.83,64.103,62.762,64.935,65.789,63.83,65.217,67.873,67.265,65.789,67.265,66.964,64.378,64.103,64.655,64.378,64.103,65.217,65.502,65.789,68.182,69.444,67.873,69.124,70.755,70.093,68.182,64.935,64.935,63.83,61.983,64.103,64.655,64.103,66.372,66.372,63.559,63.025,64.655,64.935,65.502,66.079,64.655,66.079,68.807,69.444,70.093,71.09,69.124,65.502,64.655
